<Actel_Data_File>
    <format name="NVM File" version="01.00.00"/>
    <header>
        <die>
            M2S010
        </die>
        <family>
            SmartFusion2
        </family>
        <module>
            
        </module>
        <package>
            256 VF
        </package>
        <version>
            2021.2.0.11
        </version>
    </header>
    <nvm>
        <region name="hex" address="0x000000" retrieveAddressFromFile="false" size="12768" format="HEX" type="Data Storage" wordSize="8" numberWords="12768" memFile="D:\time_eternity\desktop_download_doc_pic_vid_music\Desktop\industrie_and_space\pro\Image_Processing_with_low_power_demo\HF10_OV7725_LCD_FF\SC\hellofpga_lcd_cam_ff\Release\hellofpga_lcd_cam_ff.hex" memType="INTELHEX" memFileTimeStamp="" clientType="public" program="true">
            <fabric_accessible/>
            <mss_accessible/>
            00000120910100007f030000810300008303000085030000870300000000
            0000000000000000000000000000890300008b030000000000008d030000
            8f03000091030000930300009503000097030000852000009b0300009d03
            0000a9200000a1030000a3030000a5030000a7030000a9030000ab030000
            ad030000af030000b1030000b3030000b50300006d080000b9030000bb03
            0000bd030000bf030000c1030000c3030000c50300002122000019230000
            cb030000cd030000cf030000d1030000d3030000d5030000d7030000d903
            0000db030000dd030000df030000e1030000e3030000e5030000e7030000
            e9030000eb030000ed030000ef030000f1030000f3030000f5030000712b
            0000f9030000fb030000fd030000ff030000010400000304000005040000
            07040000090400000b0400000d0400000f04000011040000130400001504
            000017040000190400001b0400001d0400001f0400002104000023040000
            2504000027040000290400002b0400002d0400002f040000310400003304
            000000000000000000004ff0000bdff8be020068dff8b612096801f00301
            00f01c00142801d14bf0020b002901d04bf0010bbbf1000f05d0a748a749
            dff8722200f09ff8a64880470bf0020abaf1000f0cd0dff86e02dff86e12
            02680b680fb44ff000024ff0ff0302600b609d484ff000024ff001030228
            08d1dff83a120a60dff83e120a60dff832120b60012808d1dff82a120a60
            dff826120a60dff81a120b609048002809d190489049914a00f030f89048
            9149914a00f02bf891489149924a00f026f891489249dff8e22100f058f8
            bbf1000f10d08f488f49dff8d62100f04ff80bf0020abaf1000f05d00fbc
            02600b6000bfaff30080dff820020ff2030e00474ff000004ff00001dff8
            14f2fee72de9f841884225d0b2eb010200d5fee740ea010313f0030302d0
            00f01df819e04ff0000390461211f7d09a421cbff0c8f0c103f10103f8d1
            08f00f08b8f1000f08d004780c7000f1010001f10101b8f10108f6d1bde8
            f88108b54ff0000303780b7000f1010001f10101013af7d108bd884237d0
            00f00306002e14d04ff00405a5eb06044ff0080707fb06f8914669fa08f9
            002c07d080f8009069fa07f900f10100013cf5e74ff000060f46091a8846
            0911914614461546b14206d018bfa0e8340206f10106b142f8d108f00f08
            b8f1000f07d002704fea322200f10100b8f10108f4e77047fee7fee7fee7
            fee7fee7fee7fee7fee7fee7fee7fee7fee7fee7fee7fee7fee7fee7fee7
            fee7fee7fee7fee7fee7fee7fee7fee7fee7fee7fee7fee7fee7fee7fee7
            fee7fee7fee7fee7fee7fee7fee7fee7fee7fee7fee7fee7fee7fee7fee7
            fee7fee7fee7fee7fee7fee7fee7fee7fee7fee7fee7fee7fee7fee7fee7
            fee7fee7fee7fee7fee7fee7fee7fee7fee7fee7fee7fee7fee7fee7fee7
            fee7fee7fee7fee7fee7fee7fee7fee7fee7fee7fee7fee7fee770470000
            0000a2a2a2a2008003400880034010800340308003403480034038800340
            18080240000000f00020000001203d260000000000000000000000000000
            0000000090010000b0040000b0040000c0310000c0310000000000202000
            002020000020200200202002002000f00020a1300000892b000000000000
            0348044b834202d0034b03b1184770472000002020000020000000000548
            0649091a891001ebd171491002d0034b03b1184770472000002020000020
            0000000010b5064c237843b9fff7daff044b13b10448aff3008001232370
            10bd20000020000000009831000008b5054b1bb105490548aff30080bde8
            0840fff7cfbf00bf00000000240000209831000001607047006870470eb5
            03fa01f303ea020301686fea020201ea020141ea030101600ebd006800ea
            020020fa01f0704701807047008870470eb503fa01f303ea020301886fea
            020201ea020141ea030101800ebd008800ea020020fa01f0704701707047
            007870470eb503fa01f303ea020301786fea020201ea020141ea03010170
            0ebd007800ea020020fa01f0704780b483b000af0346fb71fb7903f01f02
            064997f907305b09012000fa02f241f8232000bf0c37bd4680bc704700e1
            00e080b483b000af0346fb71fb7903f01f02074997f907305b09012000fa
            02f2203341f8232000bf0c37bd4680bc704700bf00e100e080b483b000af
            0346fb71fb7903f01f02074997f907305b09012000fa02f2603341f82320
            00bf0c37bd4680bc704700bf00e100e080b582b000af786039601320fff7
            c4ff244b00229a601320fff7d8ff224a7b681360224b00221a70214b0022
            1a70214b00221a60204b00221a80204b00221a601f4b00221a601f4a3b68
            13601e4b00221a801e4b00221a801d4b00221a601d4b00221a700f4b1b68
            0e4a23f0200313600c4b1b680b4a43f010031360094b9b68084a23f00103
            9360064b9b68054a43f0020393601320fff767ff00bf0837bd4680bd00bf
            0060014064000020600000203c0000204000002044000020480000204c00
            0020500000205400002056000020580000206100002080b586b000aff860
            7a603b600b467b817b89002b00d100be1320fff751ff374b00229a601320
            fff765ff00f0a3fa344b01221a70fb681a78324b1a70324afb681360324a
            7b891380314a7b681360314a3b681360304a3b6a1360304abb8c13802f4b
            00221a802f4b00221a602e4abb6a1360224b9b68214a43f002039360214b
            1b78dbb2184600f09bfafb685a1c7b89013b1946104600f0b1fa78617b69
            01337b617b897a699a4212d2184b1b889ab27b699bb2d31a9ab2144b1a80
            124b1a687b691344104a1360184b01221a700de00e4b00221a800f4b1b68
            002b03d0134b02221a7002e0114b03221a701320fff7cffe00bf1837bd46
            80bd00bf00600140600000203c0000204000002044000020480000204c00
            00205000002054000020560000205c000020580000206100002080b582b0
            00af0f4b5b68fb710d4b9b68dab2fb791340fb71fb7903f00203bb71bb79
            002b01d000f0e5f8fb7903f001037b717b79002b01d000f006f800bf0837
            bd4680bd0060014080b584b000af624b1b78022b3dd0052b68d0012b40f0
            aa805e4b1b889bb2002b2fd05d4b1a685b4b1b889bb21946104600f028fa
            7860574b1b889bb21a467b6893420fd2534b1b889ab27b689bb2d31a9ab2
            504b1a80504b1a687b6813444e4a136090e04b4b00221a804c4b1b68002b
            03d0474b02221a7085e0454b03221a7081e000be00f0baf97de0444b1b68
            002b24d0434b1a68414b1b681946104600f0f1f9b8603d4b1b68ba689a42
            0cd23b4b1a68bb68d31a394a1360394b1a68bb681344374a13605ee0364b
            9b68354a23f0010393602e4b03221a7054e000be00f08df950e02d4b1b68
            002b1bd12e4b1b68002b14d02c4b1b68294898470246274b1a60264b1b68
            002b0cd1264b9b68254a23f0010393601e4b03221a7002e000be00f06cf9
            1d4b1b68002b09d11d4b9b681c4a23f001039360154b03221a7022e0174b
            1a68154b1b681946104600f09af9f860124b1a68fb68d31a104a1360104b
            1a68fb6813440e4a13600ce00d4b9b680c4a23f001039360002000f01ff9
            044b00221a7000bf00bf1037bd4680bd00bf610000204400002040000020
            4c00002048000020006001405c00002080b584b000af7c4b1b69fb81fb89
            23f4ff4323f07f03bb81fb89fb72774b1b78052b00f2d68001a252f823f0
            a50a00001f0c00001f0c0000fd0a00004b0b0000f30b0000bb89002b00f0
            ca80fb7af12b06d0fb7a7b717b79184600f06df9bfe0674b00221a80674b
            1b68654a128892b21344fa7a1a70624b1b889bb201339ab25f4b1a805f4b
            1b685d4a128892b2134400221a70594b04221a70a1e0bb89002b00f0a080
            fb7afb71574b1b78dbb2fa799a4215d1524b00221a80524b1b68504a1288
            92b21344fa791a704d4b1b889bb201339ab24a4b1a80484b04221a7081e0
            fb79184600f028f97ce0bb89002b06d0fb7a3b723b7a184600f01ef974e0
            414b1a683f4b1b889bb2013b13441b78f12b16d13c4b1b683a4a128892b2
            1344fa7a1a70384b1a68364b1b889bb2013b13441b78184600f000f9304b
            00221a7053e02f4b1b889ab2314b1b889a4210d2fb7a7b722c4b1b682a4a
            128892b213447a7a1a70274b1b889bb201339ab2244b1a80234b1b889ab2
            254b1b889a4234d1204b1b889bb2184600f043f81c4b00221a702ae0bb89
            002b0bd11a4b1b680133fa7a1a70022000f034f8144b00221a701ee0fb7a
            bb72bb7a184600f0bef817e0bb89002b13d0fb7abb71bb79184600f0b4f8
            0ce0002000f01cf8084b00221a7006e000bf04e000bf02e000bf00e000bf
            00bf1037bd4680bd00bf006001406100002056000020500000203c000020
            5400002080b582b000af0346fb800a4b1b68002b0cd0084b1b68084a1268
            f98810469847044b00221a60054b00221a7000bf0837bd4680bd58000020
            500000206000002080b582b000af0e4b1b78dbb2002b13d00c4b1b889bb2
            1846fff7d2ff0a4b1b68094a43f001031360074b1b6803f001037b607b68
            002bf7d100bf0837bd4680bd60000020560000200060014080b485b000af
            0346fb710b4b1b680a4a23f004031360084b5b6803f00103fb60fb68002b
            f7d0044afb79936100bf1437bd4680bc704700bf0060014080b485b000af
            78603960144b1b68134a23f0040313600023fb60104b5b6803f00103bb60
            0de07a68fb6813441a780b4b1a61fb680133fb60084b5b6803f00103bb60
            bb68002b03d0fa683b689a42ead3fb6818461437bd4680bc704700600140
            80b582b000af0346fb71064b1b68002b04d0044b1b68fa791046984700bf
            0837bd4680bd6400002080b582b000af78600a4a7b6813600a4b00221a80
            094b00221a70094bd3f89830084a136008490948fff73cfc00bf0837bd46
            80bd6c0000206a00002068000020008003407400002070000020110e0000
            80b586b000af0346fb71fb79e02b1dd141f28833fb60304bd3f8983003f4
            80533b61fb68013bfb603b69002b02d1fb68002bf0d1294b1b68002b48d0
            274b1b68274a5178fa791046984740e0fb79e12b1fd141f28833bb601f4b
            d3f8983003f480537b61bb68013bbb607b69002b02d0bb68002bf0d100f0
            d9f9184b1b68002b25d0164b1b68164a5178fa79104698471de0fb79f12b
            0fd097f90730002b02dafb799f2b08d9fb79a02b05d0fb79b02b0dd9fb79
            b72b0ad8084b1b68002b06d0064b1b68064a5178fa791046984700bf1837
            bd4680bd00bf008003406c0000207000002080b485b000af03463960fb71
            fb79062b34d801a252f823f0290f0000350f0000410f0000710f00004d0f
            0000590f0000650f0000174bfb603b6804221a7023e0154bfb603b680322
            1a701de0134bfb603b6805221a7017e0114bfb603b6803221a7011e00f4b
            fb603b6802221a700be00d4bfb603b6802221a7005e03b6800221a700023
            fb6000bffb6818461437bd4680bc70470000002004000020080000201000
            0020140000201800002080b588b000afa14bd3f898307b600023fb610023
            7b610023fb769c4bd3f84c319bb23b613b694ff60202934213d03b694ff6
            030293420ed03b694ff60402934209d03b694ff60702934204d03b694ff6
            060293420cd18d4bd3f898308c4a1a408a498c4b1343c1f898300023fb76
            07e13b694ff60502934240f0c7807b689b0803f00703844a1360834b1b68
            dbb207f10b0211461846fff75dfff8600123fb6116e07a4bd3f898307b61
            7b6923f01c037b61fa68fb6913441b789b007a6913437b61724a7b69c2f8
            9830fb690133fb61fb7a1a46fb699342e3d37b685b0903f007036d4a5360
            6c4b5b68dbb207f10b0211461846fff72efff8600123fb6116e0624bd3f8
            98307b617b6923f0e0037b61fa68fb6913441b785b017a6913437b615a4a
            7b69c2f89830fb690133fb61fb7a1a46fb699342e3d37b685b0a03f00703
            554a9360544b9b68dbb207f10b0211461846fff7fffef8600123fb6116e0
            4b4bd3f898307b617b6923f460637b61fa68fb6913441b785b027a691343
            7b61434a7b69c2f89830fb690133fb61fb7a1a46fb699342e3d37b68db0c
            03f007033e4ad3603d4bdb68dbb207f10b0211461846fff7d0fef8600123
            fb6116e0334bd3f898307b617b6923f460137b61fa68fb6913441b78db04
            7a6913437b612b4a7b69c2f89830fb690133fb61fb7a1a46fb699342e3d3
            254bd3f89830244a43f48053c2f898300023fb763ae03b694ff608029342
            35d17b689b0803f007031e4a13607b685b0903f007031b4a53607b685b0a
            03f00703184a93607b68db0c03f00703154ad3600123fb6117e0134afb69
            52f82320114b1b689a4209d10f4b1b68052b05d80d4afb6952f82330052b
            02d90123fb7605e0fb690133fb61fb69032be4d9fb7e18462037bd4680bd
            00bf0080034003e1c7ffd81c30007800002080b586b000af0023fb750023
            3b61694bd3f84c319bb2fb60fb684ff60202934213d0fb684ff603029342
            0ed0fb684ff60402934209d0fb684ff60702934204d0fb684ff606029342
            05d15a4a5a4b1b68c2f89830a9e0fb684ff60502934240f0a480564b1b68
            dbb2fa1d11461846fff723feb860fb79fb7517e04e4bd3f898303b613b69
            23f01c033b61fb7d013bba6813441b789b003a6913433b61454a3b69c2f8
            9830fb7d013bfb75fb7d002be4d1424b5b68dbb2fa1d11461846fff7fcfd
            b860fb79fb7517e03a4bd3f898303b613b6923f0e0033b61fb7d013bba68
            13441b785b013a6913433b61324a3b69c2f89830fb7d013bfb75fb7d002b
            e4d12f4b9b68dbb2fa1d11461846fff7d5fdb860fb79fb7517e0274bd3f8
            98303b613b6923f460633b61fb7d013bba6813441b785b023a6913433b61
            1e4a3b69c2f89830fb7d013bfb75fb7d002be4d11b4bdb68dbb2fa1d1146
            1846fff7aefdb860fb79fb7517e0134bd3f898303b613b6923f460133b61
            fb7d013bba6813441b78db043a6913433b610b4a3b69c2f89830fb7d013b
            fb75fb7d002be4d1064bd3f89830044a23f48053c2f8983000bf1837bd46
            80bd00bf00800340740000207800002080b58ab004af0346fb710023bb75
            274bd3f84c314ff60202934200d100be234bd3f84c31224a934200d100be
            1f4bd3f89830204a1360fff7b5fd0346bb75bb7d002b2bd1194bd3f88830
            184a43f00603c2f8883000f048f802233b74fb797b7407f11000144b0293
            0223019307f10c030093002300220221fff762f900f04af80346bb82bb8a
            022b05d13b7b022b02d17b7bfb7504e0c823fb7501e0c923fb75fb7d1846
            1837bd4680bd00bf0080034002f8010074000020b914000080b483b000af
            78600b467b80054b00221a70054a7b88138000bf0c37bd4680bc704700bf
            680000206a00002080b400af00bf074b1b78dbb2002bfad1044b01221a70
            044b00221a8000bfbd4680bc7047680000206a00002080b400af00bf064b
            1b78dbb2002bfad1044b1b889bb21846bd4680bc704700bf680000206a00
            002080b483b000af0346fb71fb7903f01f02064997f907305b09012000fa
            02f241f8232000bf0c37bd4680bc704700e100e080b483b000af0346fb71
            fb7903f01f02074997f907305b09012000fa02f2203341f8232000bf0c37
            bd4680bc704700bf00e100e080b483b000af0346fb71fb7903f01f020749
            97f907305b09012000fa02f2603341f8232000bf0c37bd4680bc704700bf
            00e100e080b584b000af78600b46fb701346bb70bb78fb607b68394a9342
            04d07b68384a934200d000be00f023fdb86074220021786801f071fd7b68
            304a934218d17b6804225a747b682f4a5a617b682e4a9a612e4b9b6c2d4a
            43f4006393640420fff7b5ff2a4b9b6c294a23f40063936417e07b680722
            5a747b68254a5a617b68254a9a61224b9b6c214a43f4805393640720fff7
            9cff1d4b9b6c1c4a23f4805393647b689a697b68da61fb785a007b681a60
            fb689a087b689b6902f00102da61fb685a087b689b6902f001025a607b68
            9b69fa6802f001021a607b681a687b685b69d2b21a737b689b6901229a61
            b86800f0d2fc00bf1037bd4680bd00bfac00002020010020002000400000
            044200800340002001400000244280b586b000aff8607a601a460b46fb72
            13463b81fb68304a934204d0fb682f4a934200d000be00f097fc7861fb68
            1b7a002b02d1fb6801221a72fb68012283f87220fb7a5a00fb685a60fb68
            0022da62fb687a681a623a89fb685a62fb6800229a62fb68012283f83c20
            fb6897f820201a74fb6893f85c30dbb2012b04d1fb68012283f8712003e0
            fb689b6901225a61fb6893f87030012b10d1fb689b690022da60fb685b69
            1b79fb74fb7cdbb2fb74fb6893f911301846fff7fcfefb6893f911301846
            fff7c4fe786900f058fc00bf1837bd4680bd00bfac0000202001002080b4
            83b000af78607b6893f86830002b03d07b689b6901229a6000bf0c37bd46
            80bc704790b585b000af78600123fb737b68e74a934204d07b68e64a9342
            00d000be7b685b691b79fb72fb7adbb2083bd02b00f2d78301a252f823f0
            691b0000cd1f0000cd1f0000cd1f0000cd1f0000cd1f0000cd1f0000cd1f
            0000691b0000cd1f0000cd1f0000cd1f0000cd1f0000cd1f0000cd1f0000
            cd1f0000051c0000cd1f0000cd1f0000cd1f0000cd1f0000cd1f0000cd1f
            0000cd1f0000e71b0000cd1f0000cd1f0000cd1f0000cd1f0000cd1f0000
            cd1f0000cd1f0000051c0000cd1f0000cd1f0000cd1f0000cd1f0000cd1f
            0000cd1f0000cd1f00008b1c0000cd1f0000cd1f0000cd1f0000cd1f0000
            cd1f0000cd1f0000cd1f0000dd1b0000cd1f0000cd1f0000cd1f0000cd1f
            0000cd1f0000cd1f0000cd1f0000a91c0000cd1f0000cd1f0000cd1f0000
            cd1f0000cd1f0000cd1f0000cd1f0000ed1c0000cd1f0000cd1f0000cd1f
            0000cd1f0000cd1f0000cd1f0000cd1f00000b1d0000cd1f0000cd1f0000
            cd1f0000cd1f0000cd1f0000cd1f0000cd1f00003f1d0000cd1f0000cd1f
            0000cd1f0000cd1f0000cd1f0000cd1f0000cd1f0000cf1d0000cd1f0000
            cd1f0000cd1f0000cd1f0000cd1f0000cd1f0000cd1f0000c71d0000cd1f
            0000cd1f0000cd1f0000cd1f0000cd1f0000cd1f0000cd1f0000cf1d0000
            cd1f0000cd1f0000cd1f0000cd1f0000cd1f0000cd1f0000cd1f0000c71d
            0000cd1f0000cd1f0000cd1f0000cd1f0000cd1f0000cd1f0000cd1f0000
            051e0000cd1f0000cd1f0000cd1f0000cd1f0000cd1f0000cd1f0000cd1f
            00009b1d0000cd1f0000cd1f0000cd1f0000cd1f0000cd1f0000cd1f0000
            cd1f0000051e0000cd1f0000cd1f0000cd1f0000cd1f0000cd1f0000cd1f
            0000cd1f00009b1d0000cd1f0000cd1f0000cd1f0000cd1f0000cd1f0000
            cd1f0000cd1f00005b1e0000cd1f0000cd1f0000cd1f0000cd1f0000cd1f
            0000cd1f0000cd1f00001d1f0000cd1f0000cd1f0000cd1f0000cd1f0000
            cd1f0000cd1f0000cd1f00001d1f0000cd1f0000cd1f0000cd1f0000cd1f
            0000cd1f0000cd1f0000cd1f00001d1f0000cd1f0000cd1f0000cd1f0000
            cd1f0000cd1f0000cd1f0000cd1f00009d1f0000cd1f0000cd1f0000cd1f
            0000cd1f0000cd1f0000cd1f0000cd1f00009d1f0000cd1f0000cd1f0000
            cd1f0000cd1f0000cd1f0000cd1f0000cd1f0000cd1f0000cd1f0000cd1f
            0000cd1f0000cd1f0000cd1f0000cd1f0000cd1f0000f51e00007b689b69
            00225a617b685a687b685b69d2b21a727b689b697a68d26ac3f800217b68
            db6a002b07d17b6800229a620ae0ac000020200100207b68db6a012b02d1
            7b6800229a637b6893f87130002b03d07b68002283f871207b681a7a7b68
            93f872309a4200f01d827b6893f872207b681a7216e27b689b6901225a61
            1ce27b689b6901221a617b68022283f83c207b6800221a727868fff7e3fd
            0de27b689a6a7b685b6a9a420cd27b681a6a7b689b6a581c796888621a44
            7b685b6912781a72fae17b681b7a032b07d17b680122da627b689b690122
            5a61eee17b6800221a727b681b7c03f001033b737b683a7b83f870203b7b
            002b07d17b689b6901221a617868fff7adfd07e07b6893f911301846fff7
            76fc0023fb737b68002283f83c20cae17b689b6901221a617b68022283f8
            3c207b6800221a727868fff791fdbbe17b685b6b012b04d97b689b690122
            9a60b2e17b685b6b012b04d17b689b6900229a60a9e17b689b6901229a60
            7b689b6901221a617b68002283f83c207b6800221a7299e17b689b690122
            1a617b68022283f83c207b6800221a727868fff760fd8ae17b685a697b68
            196b7b689b6b5c1c786884630b44127ad2b21a707b689a6b7b685b6b013b
            9a42c0f06d817b689b6900229a6067e17b685a697b68196b7b689b6b0b44
            127ad2b21a707b681b7c03f001033b737b683a7b83f870203b7b002b07d1
            7b689b6901221a617868fff728fd07e07b6893f911301846fff7f1fb0023
            fb737b6800221a727b68002283f83c2042e17b689b6901229a607b680022
            1a727b68002283f85c207b6893f87130002b00f02b817b689b6901225a61
            25e17b68012283f871207b6804221a727b6800229a657b680022da607b68
            9b695b69002b07d07b689b6900225a617b68012283f871207b68012283f8
            5c200de17b681b6d002b1ad07b689a6d7b685b6d9a4214d27b685b691b7a
            7b737b681a6d7b689b6d581c7968886513447a7b1a707b68db681a027b7b
            1a447b68da607b689a6d7b685b6d9a42c0f0e3807b689b6900229a60dde0
            7b681b7a042b31d17b689a6d7b681b6e9a4203d17b68da687b68da647b68
            5b6e002b1ed07b685b6e7a68116d7a68926d92b2786898470346bb73bb7b
            002b07d17868fff794fc7b689b6901229a6013e07b689b6900229a607b68
            002283f868200ae07b689b6901229a6005e07b680022da647868fff77bfc
            7b68002283f85c207b6893f87130002b03d07b689b6901225a617b680022
            1a7295e07b6800221a727b680022da647b6893f85c30dbb2012b03d17b68
            022283f85c207868fff757fc81e0fb7adbb2a82b16d17b6805221a727b68
            0022da607b68012283f85c207b689b695b69002b07d07b689b6900225a61
            7b68012283f871207b68da6c7b689b6c9a4204d37b685b69ff221a720be0
            7b685a6c7b68db6c581c7968c8641a447b685b6912781a727b68da6c7b68
            9b6c9a4246d37b689b6900229a607b680022da643ee07b680022da647b68
            9b6901229a607b68002283f85c207b6893f87130002b03d07b689b690122
            5a617b6800221a7229e07b689b6900225a617b6800221a727b680022da64
            7b6893f83c30dbb2012b03d17b68022283f83c207b6893f85c30dbb2012b
            0ed17b68022283f85c2009e000bf08e000bf06e000bf04e000bf02e000bf
            00e000bffb7b002b03d07b689b690022da607b685b691b79fb7200bf1437
            bd4690bd00bf80b485b000afeff310837b607b68fb600123bb60bb6883f3
            1088fb6818461437bd4680bc704780b485b000af78607b68fb60fb6883f3
            108800bf1437bd4680bc70470000684620f007018d4689b500af0448fff7
            abfb00bfbd46bde889408546704700bfac000020684620f007018d4689b5
            00af0448fff799fb00bfbd46bde889408546704700bf2001002080b485b0
            00aff860b9607a60fb704d484d4b1a68f97813469b001344db01034403f5
            e27319604949474b1a6813469b0013449b000b440433fa681a604349424b
            1a6813469b0013449b000b440833ba681a603e493c4b1a6813469b001344
            9b000b440c331b683948374a11681a0c12040b469b000b449b0003440c33
            1a607b68b3f5803f0fd97b68a3f58033304a1361bb6803f580332e4ad360
            fb6803f580332b4a93601ae02949274b1a6813469b0013449b000b440c33
            1b687a6892b211462248214a1268194313469b0013449b0003440c331960
            1e4b00221a611b491a4b1a6813469b0013449b000b440c331b681648154a
            126843f4e00113469b0013449b0003440c3319600e490f4b1a6813469b00
            1344db010b4403f5e07301221a600849094b1a6813469b001344db010b44
            03f5e67300221a6000bf1437bd4680bc704700bf00002842a00000200040
            014088000020684620f007018d4689b500af354a364b1b6803f528730121
            42f823103349324b1a6813469b0013449b000b440c331b682e482d4a1268
            23f4e00113469b0013449b0003440c331960274b1b680133264a1360254b
            1b68042b02d1234b00221a60234b1b69002b17d0224b1b68042b03d1204b
            00221a6004e01e4b1b6801331d4a13601b4b98681a4bd968194b1a69184b
            1b7dfff70bff1ee01449134b1a6813469b0013449b000b440c331b6803f4
            e003002b10d10c4b00221a600e4b00221a600b4b01221a700a4b5b68002b
            03d0084b5b680120984700bfbd46bde889408546704700bf00002842a400
            00200040014088000020a0000020684620f007018d4681b583b000af384b
            1b683b603b6803f470633b603b68002b2fd03449344b1a6813469b001344
            db010b4403f502731b68002b0ad02f4b02221a702e4b5b68002b03d02c4b
            5b68022098472849284b1a6813469b001344db010b4403f503731b68002b
            0ad0234b03221a70224b5b68002b03d0204b5b68032098471b4b1b683b60
            3b6803f470433b603b68002b0ad0194b04221a70174b5b68002b03d0154b
            5b680420984700237b6014e010497a6813469b001344db010b4403f5e473
            01221a600a4a7b6803f52873012142f823107b6801337b607b68032be7d9
            00bf0c37bd46bde88140854670470040014000002842a400002088000020
            80b483b000af0346fb71fb7903f01f02064997f907305b09012000fa02f2
            41f8232000bf0c37bd4680bc704700e100e080b483b000af0346fb71fb79
            03f01f02074997f907305b09012000fa02f2203341f8232000bf0c37bd46
            80bc704700bf00e100e080b483b000af0346fb71fb7903f01f02074997f9
            07305b09012000fa02f2603341f8232000bf0c37bd4680bc704700bf00e1
            00e080b582b000af1a4b9b6c194a43f480139364174b9b6c164a43f0f073
            936400237b6012e0134a7b68134493f900301846fff7b2ff0f4a7b681344
            93f900301846fff7c4ff7b6801337b607b681f2be9d9074b9b6c064a23f0
            f0739364044b9b6c034a23f48013936400bf0837bd4680bd008003407831
            000080b485b000af03463960fb71fb79fb60fb681f2b00d900befb681f2b
            05d8054afb6852f823303a681a6000bf1437bd4680bc7047f830000080b5
            84b000af0346fb71fb79fb60fb681f2b00d900befb681f2b15d80c4afb68
            52f823301b68bb60094afb6852f82330ba6842f008021a60064afb681344
            93f900301846fff738ff00bf1037bd4680bdf83000007831000080b485b0
            00af0346fb71fb79fb60fb681f2b00d900befb681f2b0dd8094afb6852f8
            23301b68bb60064afb6852f82330ba6822f008021a6000bf1437bd4680bc
            704700bff830000080b485b000af0346fb71fb79fb60fb681f2b00d900be
            fb681f2b06d8064a0121fb6801fa03f3c2f88030bff34f8f00bf1437bd46
            80bc70470030014080b500af00f030f8044b5b69034a43f400735361fdf7
            f0fe00bf80bd00ed00e080b483b000af0e4bd3f84c313b603b684ff60202
            934203d00a4a934203d005e001237b6005e002237b6002e000237b6000bf
            7b6818460c37bd4680bc704700bf0080034002f8010080b582b000affff7
            d7ff78607b68012b00d002e000f006f800bf00bf0837bd4680bd000080b4
            00af094bd3f89830084a43f48073c2f89830054bd3f89830044a23f08063
            c2f8983000bfbd4680bc70470080034080b582b000af03460a46fb711346
            bb7100211d48fdf716ff01211c48fdf712ff02211b48fdf70efffb791946
            1948fdf709ff03211648fdf705ff4ff002004ff0000100f071f901210f48
            fdf7fbfe02210f48fdf7f7fe00210b48fdf7f3febb7919460c48fdf7eefe
            03210948fdf7eafe01210548fdf7e6fe02210548fdf7e2fe00bf0837bd46
            80bd1007003018070030140700300c07003080b582b000af0346fb710021
            1048fdf7cdfe01210f48fdf7c9fe02210e48fdf7c5fefb7919460d48fdf7
            c0fe03210a48fdf7bcfe01210648fdf7b8fe4ff0c8004ff0000100f024f9
            00bf0837bd4680bd1007003018070030140700300c07003080b582b000af
            0346fb7100211048fdf79dfe01210f48fdf799fe00210e48fdf795fefb79
            19460d48fdf790fe01210a48fdf78cfe01210648fdf788fe4ff0c8004ff0
            000100f0f4f800bf0837bd4680bd1007003018070030140700300c070030
            80b582b000af0120fff7caff4ff4fa704ff0000100f0dcf86821362000f0
            fcf855213a2000f0f8f800224121c12000f00df9002353220021c52000f0
            2cf93321c22000f0e9f80021352000f0e5f8e020fff7a6ff0f20fff773ff
            1b20fff770ff1820fff76dff0b20fff76aff0e20fff767ff0920fff764ff
            4720fff761ff9420fff75eff3520fff75bff0a20fff758ff1320fff755ff
            0520fff752ff0820fff74fff0320fff74cff0020fff749ffe120fff776ff
            0f20fff743ff3a20fff740ff3720fff73dff0b20fff73aff0c20fff737ff
            0520fff734ff4a20fff731ff2420fff72eff3920fff72bff0720fff728ff
            1020fff725ff0420fff722ff2720fff71fff2520fff71cff0020fff719ff
            2a20fff746ff0020fff713ff0020fff710ff0120fff70dffdf20fff70aff
            2b20fff737ff0020fff704ff0020fff701ff0120fff7fefe3f20fff7fbfe
            1120fff728ff4ff064004ff0000100f03af82920fff71fff4ff064004ff0
            000100f031f82c20fff716ff4ff0c8004ff0000100f028f800237b6016e0
            00233b6006e000210020fff78afe3b6801333b603b68b3f5a07ff4db4ff4
            fa604ff0000100f011f87b6801337b607b68b3f5f07fe4db01210348fdf7
            94fd00bf0837bd4680bd2807003090b486b000afc7e9000110e00023fb60
            03e000bffb680133fb60fb68092bf8ddd7e90434591c44f10002c7e90412
            d7e90412d7e90034a24208bf9942e6d300bf1837bd4690bc704780b582b0
            00af03460a46fb711346bb71fb791846fff7b8fe4ff0c8004ff00001fff7
            caffbb791846fff77efe00bf0837bd4680bd80b582b000af0346fb710b46
            bb7113467b71fb791846fff79dfe4ff0c8004ff00001fff7afffbb791846
            fff763fe4ff0c8004ff00001fff7a5ff7b791846fff759fe00bf0837bd46
            80bd90b583b000af0446084611461a462346fb710346bb710b467b711346
            3b71fb791846fff772fe4ff0c8004ff00001fff784ffbb791846fff738fe
            4ff0c8004ff00001fff77aff7b791846fff72efe4ff0c8004ff00001fff7
            70ff3b791846fff724fe00bf0c37bd4690bd80b483b000af786002e07b68
            013b7b607b68002bf9dc00bf0c37bd4680bc704780b500af034b01221a70
            0120fff740fd00bf80bda800002080b582b000afff23fb711c4b00221a70
            00f04cf8fff758fe1948fef70df9fff783fc62210120fff7bbfc0120fff7
            d4fc124b1b78dbb2012bfad10120fff7f8fc0e4b00221a706420fff7beff
            62210120fff7a6fc0420fef70dfc0346fb71fb79002b06d1054b00221a70
            0120fff7b4fcdee7024b00221a70dae700bfa80000200d2c000080b584b0
            00af03460a46fb711346bb71fb79e02b03d14ff47a70fff793ff00bf1037
            bd4680bd000080b500af00222121e548fef7c7fc00f01ffa1021122000f0
            c5f90021002000f0c1f98021012000f0bdf98021022000f0b9f980210320
            00f0b5f90021052000f0b1f90021062000f0adf90021072000f0a9f90021
            082000f0a5f94021102000f0a1f90121092000f09df990210c2000f099f9
            00210d2000f095f901210e2000f091f943210f2000f08df98021112000f0
            89f90621122000f085f90f21132000f081f94a21142000f07df900211520
            00f079f90021162000f075f92321172000f071f9a321182000f06df90721
            192000f069f9f0211a2000f065f940211b2000f061f900211f2000f05df9
            1021202000f059f9ff21222000f055f90121232000f051f94021242000f0
            4df91021252000f049f9d421262000f045f90021282000f041f9a0212920
            00f03df900212a2000f039f900212b2000f035f9f0212c2000f031f90021
            2d2000f02df900212e2000f029f900212f2000f025f98021302000f021f9
            6021312000f01df90021322000f019f90021332000f015f90021342000f0
            11f98021352000f00df98021362000f009f98021372000f005f980213820
            00f001f98021392000f0fdf880213a2000f0f9f880213b2000f0f5f88021
            3c2000f0f1f880213d2000f0edf8e2213e2000f0e9f81f213f2000f0e5f8
            0821412000f0e1f88021422000f0ddf88021432000f0d9f88021442000f0
            d5f88021452000f0d1f800214d2000f0cdf8ef214e2000f0c9f810214f20
            00f0c5f86021502000f0c1f80021512000f0bdf80021522000f0b9f80021
            532000f0b5f87a21542000f0b1f8fc21552000f0adf88021602000f0a9f8
            8021612000f0a5f8ff21622000f0a1f8f021632000f09df81f21642000f0
            99f80021652000f095f81021662000f091f80021672000f08df800216820
            00f089f85c21692000f085f8f0217b2000f081f8f0217c2000f07df8f021
            7d2000f079f800218e2000f075f800218f2000f071f80821902000f06df8
            1021912000f069f80221922000f065f80121932000f061f82c21942000f0
            5df82421952000f059f80821962000f055f81421972000f051f824219820
            00f04df83821992000f049f89e219a2000f045f800219b2000f041f88021
            9c2000f03df811219e2000f039f802219f2000f035f80021a02000f031f8
            4021a12000f02df84021a22000f029f80621a32000f025f80021a42000f0
            21f80421a62000f01df84021a72000f019f84021a82000f015f8f021a920
            00f011f8f021aa2000f00df80621ab2000f009f8ff21ac2000f005f800bf
            80bd00bfac00002080b586b002af03460a46fb711346bb71124afb791370
            114abb7953700023009302230e4a21210e48fef772fb0023fb810be00023
            bb8102e0bb890133bb81bb89092bf9d9fb890133fb81fb8940f2db529342
            eed900bf1037bd4680bdd4010020ac00002090b486b000afc7e9000110e0
            0023fb6003e000bffb680133fb60fb68632bf8ddd7e90434591c44f10002
            c7e90412d7e90412d7e90034a24208bf9942e6d300bf1837bd4690bc7047
            80b500af80211220fff7a4ff4ff6dc704ff00001fff7d0ff00bf80bd70b5
            00250c4e0d4ca41ba410a54209d100f072f800250a4e0a4ca41ba410a542
            05d170bd56f8253098470135eee756f8253098470135f2e7b0310000b031
            0000b0310000b431000003460244934200d1704703f8011bf9e700300140
            04300140083001400c3001401030014014300140183001401c3001402030
            014024300140283001402c3001403030014034300140383001403c300140
            4030014044300140483001404c3001405030014054300140583001405c30
            01406030014064300140683001406c300140703001407430014078300140
            7c30014032333435363738393a3b3c3d3e3f404142434445464748494a4b
            4c4d4e4f5051f8b500bff8bc08bc9e467047f8b500bff8bc08bc9e467047
            19050000f104000000000000000000000001050701050700020301050700
            000004060700050700000607000000000000
            <crc>
                9e0a
            </crc>
        </region>
    </nvm>
</Actel_Data_File>
